##TITLE=ZS001_532_Coniferylalkohol (fest)_23C_10mW_L(0_unpol)S_ti001_007_SpecD
##JCAMP-DX=5.00 $$ Project FOUR (Version 4.1)
##SPECTROMETER/DATA SYSTEM=WITec Raman Microscope
##DATA TYPE=RAMAN SPECTRUM
##DATA CLASS=XYDATA
##ORIGIN=
##OWNER=
##NPOINTS=3960
##FIRSTX=-1.4003014E+02
##LASTX=3.7865203E+03
##MAXX=3.7865203E+03
##MINX=-1.4003014E+02
##MAXY=3.1125761E+03
##MINY=8.9014844E+02
##XFACTOR=1.0000000E-04
##YFACTOR=1.0000000E-04
##FIRSTY=8.9240002E+02
##DELTAX=9.9180359E-01
##XUNITS=1/CM
##YUNITS=ARBITRARY UNITS
##XYDATA=(X++(Y..Y))
    -1400301     8924000     8931107     8937739     8943421     8947679
    -1350711     8950037     8950219     8948673     8946016     8942863
    -1301121     8939829     8937402     8935639     8934510     8933983
    -1251530     8934028     8934598     8935603     8936943     8938519
    -1201940     8940231     8941918     8943251     8943873     8943428
    -1152350     8941560     8938309     8934668     8931771     8930751
    -1102760     8932736     8937904     8944407     8950136     8952983
    -1053170     8950854     8943226     8932534     8921540     8913008
    -1003579     8909676     8912551     8919778     8929236     8938803
     -953989     8946378     8950949     8953071     8953420     8952674
     -904399     8951502     8950290     8949069     8947848     8946635
     -854809     8945436     8944151     8942570     8940473     8937645
     -805219     8933902     8929746     8926311     8924758     8926247
     -755629     8931823     8940778     8951021     8960423     8966856
     -706038     8968379     8965321     8959520     8952842     8947152
     -656448     8944120     8943556     8944235     8944922     8944380
     -606858     8941575     8936983     8931774     8927122     8924198
     -557268     8923948     8925937     8929218     8932841     8935859
     -507678     8937468     8937568     8936271     8933686     8929922
     -458087     8925231     8920398     8916335     8913952     8914161
     -408497     8917422     8922851     8929311     8935668     8940788
     -358907     8943871     8944899     8943968     8941173     8936613
     -309317     8930768     8924820     8920031     8917659     8918941
     -259727     8923856     8930553     8937037     8941313     8941445
     -210137     8937304     8930833     8924086     8919119     8917893
     -160546     8920604     8925857     8932205     8938199     8942607
     -110956     8946986     8954840     8969710     8995136     9033935
      -61366     9082337     9133066     9178812     9212266     9227228
      -11776     9224731     9208706     9183093     9151831     9118470
       37813     9084713     9051719     9020646     8992652     8968736
       87403     8949354     8934843     8925540     8921780     8923193
      136994     8927646     8932735     8936059     8935233     8929455
      186584     8920808     8911678     8904453     8901484     8903628
      236174     8909748     8918570     8928817     8939222     8948703
      285764     8956357     8961291     8962611     8959541     8952885
      335354     8944578     8936578     8930846     8929075     8930678
      384945     8933893     8936951     8938080     8935913     8931415
      434535     8926394     8922656     8922008     8925608     8932051
      484125     8939304     8945336     8948114     8946554     8942090
      533715     8936577     8931866     8929799     8931108     8934485
      583305     8938406     8941344     8941809     8939595     8936131
      632895     8932954     8931599     8933509     8938382     8944368
      682486     8949564     8952069     8950339     8946701     8945839
      732076     8952472     8971317     9007802     9072090     9176276
      781666     9332463     9552753     9844088    10191460    10574026
      831256    10970945    11361381    11728062    12063440    12361611
      880846    12616672    12822787    12980237    13100201    13194984
      930437    13276888    13357928    13440877    13517603    13579347
      980027    13617352    13623369    13596992    13543947    13470122
     1029617    13381405    13283998    13186798    13100076    13034110
     1079207    12999182    13002023    13031143    13069218    13098926
     1128797    13102942    13070647    13012377    12942559    12875616
     1178387    12825915    12800599    12792811    12794087    12795963
     1227978    12790154    12774485    12754288    12735355    12723480
     1277568    12724044    12736139    12753945    12771511    12782886
     1327158    12782976    12773658    12760199    12747892    12742028
     1376748    12746641    12759896    12778252    12798165    12816094
     1426338    12828669    12832995    12826257    12805638    12768380
     1475929    12715558    12654521    12593194    12539503    12501070
     1525519    12478546    12465612    12455645    12442022    12418865
     1575109    12388289    12357267    12332838    12322044    12330221
     1624699    12352925    12382228    12410197    12428901    12433351
     1674289    12427981    12419104    12413035    12416055    12430938
     1723879    12454041    12481037    12507595    12529523    12546190
     1773470    12560816    12576810    12597584    12626151    12661004
     1823060    12697767    12732018    12759336    12775993    12782295
     1872650    12780000    12770865    12756651    12739019    12719331
     1922240    12698891    12679002    12660968    12645984    12635061
     1971830    12629194    12629374    12636577    12651338    12673766
     2021420    12703949    12741977    12787553    12836700    12883386
     2071011    12921557    12945158    12949828    12939361    12920001
     2120601    12897992    12879571    12868608    12863022    12859815
     2170191    12855989    12848593    12836732    12822315    12807457
     2219781    12794271    12784713    12778426    12773308    12767210
     2269371    12757985    12743860    12725547    12704771    12683262
     2318962    12662747    12644806    12630528    12620897    12616903
     2368552    12619520    12628917    12643878    12663053    12685093
     2418142    12708672    12732963    12757601    12782234    12806513
     2467732    12829924    12850640    12866192    12874107    12871911
     2517322    12858803    12840456    12824104    12816985    12826287
     2566912    12853623    12889894    12924789    12947999    12949626
     2616503    12929346    12896403    12860460    12831181    12817286
     2666093    12819239    12833233    12855424    12881967    12909640
     2715683    12937709    12966066    12994604    13023207    13050621
     2765273    13073406    13087871    13090325    13077302    13050352
     2814863    13015928    12980692    12951304    12933511    12925532
     2864454    12921884    12917058    12905544    12883856    12855960
     2914044    12827537    12804267    12791787    12791994    12800298
     2963634    12811459    12820237    12821620    12814694    12802064
     3013224    12786454    12770588    12757137    12748417    12746599
     3062814    12753852    12772344    12802086    12836630    12868320
     3112404    12889499    12892647    12876472    12848425    12816613
     3161995    12789142    12773499    12769409    12771327    12773604
     3211585    12770590    12758125    12739479    12720247    12706020
     3261175    12702374    12711329    12727128    12742986    12752116
     3310765    12748025    12731245    12709503    12690851    12683342
     3360355    12693656    12717544    12745540    12768145    12775862
     3409946    12762865    12735394    12702157    12671862    12653109
     3459536    12648844    12653800    12662065    12667726    12665377
     3509126    12655812    12643993    12634961    12633754    12643902
     3558716    12661876    12682080    12698923    12706836    12703526
     3608306    12693107    12680440    12670384    12667656    12674348
     3657896    12690234    12715009    12748369    12789617    12835603
     3707487    12882227    12925388    12960990    12987304    13008526
     3757077    13029764    13056128    13092478    13136976    13180505
     3806667    13213583    13226727    13212121    13175105    13127264
     3856257    13080222    13045596    13030672    13029598    13034050
     3905847    13035705    13026400    13003971    12973835    12941897
     3955438    12914062    12895764    12888053    12889588    12899007
     4005028    12914945    12935672    12958199    12979268    12995621
     4054618    13004044    13003400    12995435    12982105    12965367
     4104208    12947025    12927316    12905555    12881045    12853090
     4153798    12821678    12789302    12759026    12733914    12716987
     4203388    12709203    12708554    12712803    12719712    12727150
     4252979    12734082    12740127    12744915    12748074    12749484
     4302569    12749943    12750455    12752024    12755638    12761622
     4352159    12769362    12778176    12787382    12796445    12806264
     4401749    12818556    12835050    12857471    12886309    12917881
     4451339    12947628    12970988    12983492    12984199    12976699
     4500929    12964884    12952644    12943497    12937753    12934079
     4550520    12931130    12927560    12922446    12916093    12909034
     4600110    12901803    12894957    12889757    12888255    12892541
     4649700    12904707    12926156    12953444    12981039    13003403
     4699290    13015004    13013226    13002459    12988126    12975652
     4748880    12970184    12971488    12974404    12973594    12963719
     4798471    12941123    12911296    12882823    12864290    12864229
     4848061    12885468    12920189    12959413    12994158    13015975
     4897651    13023383    13019819    13008821    12993928    12978698
     4947241    12966775    12961820    12967497    12987355    13019931
     4996831    13056866    13089301    13108373    13106438    13086264
     5046421    13055915    13023502    12997128    12982686    12980093
     5096012    12988271    13006140    13032501    13063585    13093143
     5145602    13114828    13122289    13110871    13085137    13052777
     5195192    13021483    12998904    12988778    12987917    12992419
     5244782    12998383    13002186    13003343    13003372    13003821
     5294372    13006238    13012190    13023301    13041208    13067548
     5343963    13103782    13146369    13186158    13213703    13219554
     5393553    13196631    13152704    13101291    13055922    13030071
     5443143    13030553    13051248    13084548    13122845    13158894
     5492733    13189895    13216048    13237604    13254818    13267589
     5542323    13274614    13274334    13265189    13245770    13218930
     5591913    13192257    13173590    13170763    13189857    13226426
     5641504    13272132    13318629    13357598    13383244    13394323
     5691094    13390062    13369693    13333085    13286963    13242196
     5740684    13209713    13200439    13220584    13262584    13316368
     5790274    13371866    13419260    13453907    13476038    13486073
     5839864    13484433    13472215    13453733    13434252    13419039
     5889455    13413291    13418876    13432934    13452243    13473581
     5939045    13493951    13512046    13527338    13539302    13547415
     5988635    13551211    13550340    13544471    13533271    13516570
     6038225    13496210    13475395    13457359    13445331    13440913
     6087815    13440573    13439772    13433970    13418893    13395957
     6137405    13372050    13354282    13349761    13363010    13386591
     6186996    13409614    13421191    13410676    13377365    13333771
     6236586    13293318    13269429    13272964    13297741    13330625
     6286176    13358460    13368175    13354589    13326730    13295115
     6335766    13270260    13261560    13267781    13281812    13296486
     6385356    13304643    13302781    13296185    13291433    13295106
     6434946    13313203    13343856    13379524    13412539    13435237
     6484537    13442476    13437096    13423511    13406134    13389279
     6534127    13375299    13364760    13358159    13355998    13358461
     6583717    13364459    13372577    13381400    13389518    13395711
     6633307    13398971    13398301    13392703    13381991    13370121
     6682897    13362371    13364020    13380209    13410182    13445203
     6732488    13475968    13493174    13489231    13467292    13434651
     6782078    13398614    13366458    13343591    13332447    13335195
     6831668    13354005    13390019    13436701    13484037    13521997
     6881258    13540610    13535813    13514347    13484110    13452999
     6930848    13428216    13410931    13399202    13391061    13384553
     6980438    13379446    13379051    13387115    13407383    13442709
     7030029    13487125    13529627    13559157    13564684    13541825
     7079619    13501133    13455202    13416623    13397028    13397584
     7129209    13413029    13438004    13467155    13496299    13524056
     7178799    13549460    13571543    13589401    13602872    13612269
     7228389    13617918    13620139    13619361    13616262    13611562
     7277980    13605982    13600185    13594171    13587502    13579732
     7327570    13570419    13560922    13557140    13565674    13593124
     7377160    13645030    13714235    13785214    13842296    13869829
     7426750    13859876    13823621    13775159    13728586    13696941
     7476340    13681047    13673900    13668368    13657331    13637754
     7525930    13616306    13601066    13600111    13620490    13658183
     7575521    13702443    13742423    13767305    13771526    13761182
     7625111    13743938    13727458    13718875    13720195    13730540
     7674701    13748996    13774655    13806758    13844854    13888528
     7724291    13937367    13990583    14044223    14092727    14130527
     7773881    14152104    14156923    14153378    14150793    14158492
     7823472    14183957    14221244    14258467    14283713    14285191
     7873062    14258721    14211953    14153563    14092227    14035915
     7922652    13988305    13951461    13927443    13918287    13925036
     7972242    13947422    13985088    14037673    14105384    14191210
     8021832    14299005    14432624    14595625    14783485    14982838
     8071422    15179870    15360763    15512096    15622011    15679029
     8121013    15671676    15589487    15440920    15251206    15046160
     8170603    14851591    14686904    14551897    14442634    14355177
     8220193    14285593    14230024    14184658    14145685    14109303
     8269783    14073311    14039238    14009144    13985089    13968785
     8319373    13958759    13951832    13944809    13934506    13918571
     8368963    13896113    13866385    13828640    13782939    13734507
     8418554    13690612    13658529    13645352    13651268    13667552
     8468144    13684883    13693944    13688347    13674824    13663778
     8517734    13665611    13690099    13734191    13782813    13820430
     8567324    13831508    13806765    13756047    13692849    13630667
     8616914    13582319    13552465    13540368    13545191    13566088
     8666505    13600413    13641790    13683384    13718355    13740317
     8716095    13746228    13734554    13703769    13652496    13586359
     8765685    13520754    13471809    13455647    13483393    13542822
     8815275    13614907    13680620    13721614    13733324    13724017
     8864865    13702450    13677375    13655661    13638705    13626921
     8914455    13620721    13620381    13624731    13631727    13639313
     8964046    13645449    13649667    13654326    13662084    13675598
     9013636    13696945    13724725    13756243    13788801    13819749
     9063226    13847789    13873138    13896096    13916961    13935053
     9112816    13946290    13945859    13928945    13891608    13840975
     9162406    13791781    13758910    13757164    13790624    13841976
     9211997    13891365    13918938    13908289    13865491    13805623
     9261587    13743790    13694833    13665515    13653182    13654649
     9311177    13666732    13685973    13707955    13728053    13741644
     9360767    13744586    13738668    13729662    13723413    13725730
     9410357    13738331    13755217    13769530    13774411    13764526
     9459947    13743541    13718415    13696114    13683376    13681354
     9509538    13685380    13690514    13691818    13686796    13680213
     9559128    13678176    13686793    13711299    13748444    13790200
     9608718    13828491    13855351    13869484    13879817    13896139
     9658308    13928241    13981934    14045069    14100430    14130804
     9707898    14120063    14069416    13993971    13909231    13830669
     9757489    13768631    13722378    13689723    13668480    13656480
     9807079    13651666    13652026    13655548    13660240    13664653
     9856669    13667922    13669210    13667682    13663083    13656860
     9906259    13650768    13646564    13645857    13648936    13655398
     9955849    13664832    13676802    13689773    13700704    13706445
    10005439    13703846    13691718    13676267    13665439    13667180
    10055030    13688789    13729918    13785237    13849332    13916802
    10104620    13983467    14047174    14105957    14157853    14200722
    10154210    14231617    14247363    14244781    14221056    14178682
    10203800    14124194    14064225    14005395    13952478    13906725
    10253390    13868990    13840129    13820672    13809457    13804767
    10302981    13804886    13808203    13814924    13826782    13845557
    10352571    13873011    13908060    13943696    13972174    13985745
    10402161    13978374    13953689    13918708    13880455    13845696
    10451751    13816474    13790671    13766028    13740293    13712588
    10501341    13684989    13659950    13639926    13626903    13620183
    10550931    13618115    13619046    13621377    13624518    13628758
    10600522    13634419    13641812    13650211    13656709    13658130
    10650112    13651293    13633879    13608240    13578313    13548037
    10699702    13521359    13502366    13495262    13504254    13533501
    10749292    13581512    13635902    13683049    13709326    13704910
    10798882    13678540    13644614    13617532    13610752    13624546
    10848472    13649472    13675864    13694129    13700323    13700020
    10898063    13699710    13705881    13722671    13744520    13763370
    10947653    13771161    13760865    13736902    13710822    13694284
    10997243    13698743    13726162    13765223    13803616    13829035
    11046833    13832470    13815746    13782904    13737991    13685219
    11096423    13630240    13579416    13539114    13515537    13510298
    11146014    13519934    13540720    13568933    13601958    13639922
    11195604    13683373    13732858    13788821    13851080    13919225
    11245194    13992843    14071343    14151129    14226109    14290115
    11294784    14337020    14364441    14376722    14378908    14376042
    11344374    14371346    14360491    14337192    14295165    14229026
    11393964    14142658    14045407    13946686    13855844    13779933
    11443555    13723127    13689424    13682811    13702317    13733512
    11493145    13759710    13764223    13734632    13685444    13641642
    11542735    13628230    13668568    13758327    13870169    13976058
    11592325    14048154    14074555    14070817    14055208    14045996
    11641915    14055861    14076378    14094142    14095751    14069657
    11691506    14020634    13961937    13906890    13868441    13849852
    11741096    13844086    13843605    13840890    13831841    13819799
    11790686    13809087    13804029    13808731    13826282    13859465
    11840276    13911065    13983480    14074826    14180544    14296032
    11889866    14416720    14539062    14660782    14779685    14893567
    11939456    14996648    15074169    15109984    15087947    14996648
    11989047    14850219    14671368    14482808    14306332    14152182
    12038637    14022723    13920170    13846673    13801727    13781318
    12088227    13781190    13797091    13826631    13872311    13937420
    12137817    14025252    14137629    14268286    14408195    14548321
    12187407    14679413    14789482    14864681    14891130    14855376
    12236998    14760106    14628754    14486120    14356979    14258317
    12286588    14187770    14140024    14109766    14091874    14082190
    12336178    14076860    14072032    14064037    14051227    14033193
    12385768    14009546    13979992    13947120    13916800    13895083
    12435358    13887992    13897062    13914263    13930340    13936038
    12484948    13925261    13905106    13886111    13878815    13892373
    12534539    13924163    13965618    14008121    14043333    14068433
    12584129    14085696    14097593    14106581    14114309    14121078
    12633719    14127060    14132429    14139558    14157675    14197341
    12683309    14269118    14379873    14514103    14647938    14757490
    12732899    14820892    14841663    14840655    14839051    14857504
    12782489    14899117    14945908    14978644    14978176    14939848
    12832080    14889922    14858638    14876233    14965858    15122700
    12881670    15335048    15591191    15879381    16187603    16503716
    12931260    16815581    17110814    17373204    17583499    17722364
    12980850    17770933    17730507    17629794    17499458    17370114
    13030440    17257905    17144836    17007989    16824443    16578506
    13080031    16285230    15967848    15649588    15351997    15083357
    13129621    14845680    14640941    14470845    14332823    14220872
    13179211    14128896    14050881    13984238    13930950    13893317
    13228801    13873629    13871838    13882658    13900089    13918130
    13278391    13932588    13946333    13963956    13990050    14027589
    13327981    14068320    14099236    14107313    14080993    14027957
    13377572    13969406    13926826    13921003    13952321    13997955
    13427162    14033824    14036002    13996149    13934643    13874954
    13476752    13840545    13845309    13873855    13905211    13918402
    13526342    13897307    13851028    13796844    13752040    13731891
    13575932    13733472    13744163    13751257    13742690    13717539
    13625523    13684285    13651705    13628544    13622371    13639201
    13675113    13684943    13765450    13878345    14004132    14121184
    13724703    14207875    14249637    14255586    14239797    14216346
    13774293    14197375    14184399    14175297    14167944    14160327
    13823883    14151453    14140885    14128190    14113048    14097035
    13873473    14083296    14075026    14075314    14083569    14094586
    13923064    14102868    14102958    14093645    14081788    14075151
    13972654    14081491    14104038    14132723    14155048    14158517
    14022244    14133876    14086831    14027398    13965596    13910314
    14071834    13862177    13818138    13775134    13730522    13686779
    14121424    13649784    13625478    13619427    13629017    13643659
    14171015    13652433    13644615    13618714    13586340    13560098
    14220605    13552540    13567805    13592562    13611301    13608520
    14270195    13575852    13526999    13479908    13452532    13458417
    14319785    13490623    13536256    13582422    13617633    13640342
    14369375    13653271    13659159    13660587    13658382    13652286
    14418965    13642027    13627639    13614806    13614149    13636456
    14468556    13692224    13782014    13894233    14016549    14136659
    14518146    14244679    14334862    14401868    14440371    14448670
    14567736    14433832    14404216    14368181    14331744    14292835
    14617326    14247646    14192368    14124622    14049086    13972616
    14666916    13902070    13843318    13795215    13753571    13714183
    14716506    13673217    13630716    13589038    13550569    13517726
    14766097    13493401    13480867    13483411    13504029    13538014
    14815687    13572332    13593529    13588367    13554145    13503374
    14865277    13449751    13406926    13382851    13374492    13377565
    14914867    13387784    13401585    13417263    13433411    13448623
    14964457    13461630    13471652    13478010    13480030    13477265
    15014048    13470365    13460305    13448060    13434708    13421984
    15063638    13411887    13406414    13407253    13413338    13422171
    15113228    13431238    13438048    13440348    13436049    13423066
    15162818    13399588    13368750    13337945    13314705    13306372
    15212408    13315159    13337677    13370252    13409175    13449030
    15261998    13482060    13500331    13496003    13468648    13430751
    15311589    13396087    13378396    13384098    13403542    13424936
    15361179    13436497    13431623    13418118    13406274    13406379
    15410769    13424544    13452131    13477255    13488031    13475836
    15460359    13446614    13410376    13377130    13355620    13347469
    15509949    13351812    13367778    13394277    13428660    13467598
    15559540    13507762    13545987    13580579    13610626    13635222
    15609130    13653428    13663906    13665061    13655297    13633383
    15658720    13603552    13574233    13553958    13550940    13567036
    15708310    13598301    13640578    13689642    13739418    13781835
    15757900    13808724    13812199    13794783    13772230    13761148
    15807490    13777994    13831076    13916564    14029640    14165498
    15857081    14320430    14492639    14680519    14882509    15103397
    15906671    15360849    15674092    16062315    16533890    17071672
    15956261    17654839    18262568    18873557    19465193    20014639
    16005851    20499063    20902797    21232860    21500753    21717975
    16055441    21885651    21967010    21916638    21689121    21255979
    16105032    20659676    19961250    19221735    18496576    17814477
    16154622    17196167    16662373    16228319    15879386    15590879
    16204212    15338100    15099876    14876654    14677072    14509780
    16253802    14382246    14293761    14240169    14217301    14220311
    16303392    14239096    14261102    14273762    14265881    14238087
    16352982    14197058    14149521    14102020    14059335    14025264
    16402573    14003595    13998097    14012339    14049776    14113858
    16452163    14208140    14337415    14507283    14723352    14994758
    16501753    15376112    15953682    16814373    18039212    19626126
    16551343    21511506    23630295    25908081    28126643    29955074
    16600933    31059448    31125760    30171354    28486819    26370910
    16650524    24117152    21925487    19915086    18202467    16898257
    16700114    16000496    15406051    15008187    14702845    14440156
    16749704    14220687    14046924    13920988    13837230    13782552
    16799294    13743557    13707147    13666951    13623200    13576405
    16848884    13527220    13479631    13440956    13418663    13419739
    16898474    13439936    13463587    13474519    13457225    13412271
    16948065    13356685    13308241    13284044    13284988    13295304
    16997655    13298464    13278562    13234665    13181208    13133322
    17047245    13105722    13103161    13120244    13151121    13189899
    17096835    13229701    13262664    13280877    13276872    13253066
    17146425    13221656    13195256    13185996    13195494    13215205
    17196015    13236171    13249666    13251742    13242951    13224018
    17245606    13195881    13163677    13136361    13123025    13132104
    17295196    13159970    13192442    13214981    13213905    13190149
    17344786    13156893    13127698    13115177    13116986    13118849
    17394376    13106158    13065649    13003623    12941163    12899716
    17443966    12898845    12932954    12978548    13011748    13010546
    17493557    12975690    12923097    12868959    12828389    12804557
    17543147    12793220    12790025    12791030    12796410    12808703
    17592737    12830478    12863377    12900742    12931523    12944632
    17642327    12931052    12898493    12862747    12839662    12842836
    17691917    12869654    12910382    12955259    12995274    13026271
    17741507    13046009    13052254    13043445    13021859    12991134
    17791098    12954908    12917413    12885876    12868462    12873337
    17840688    12904988    12951578    12996746    13024133    13021800
    17890278    12994965    12953009    12905312    12860900    12827606
    17939868    12813008    12824679    12864219    12915732    12960133
    17989458    12978366    12961686    12927458    12897116    12892025
    18039049    12920388    12961665    12991525    12985785    12936292
    18088639    12865013    12797235    12758024    12757358    12780886
    18138229    12812044    12834487    12841536    12839866    12837131
    18187819    12840808    12852815    12868509    12882876    12891045
    18237409    12891600    12886580    12878174    12868515    12858698
    18286999    12848938    12839424    12830364    12822190    12815500
    18336590    12810892    12808877    12809016    12810309    12811750
    18386180    12812308    12810760    12805792    12796087    12780842
    18435770    12762606    12745271    12732731    12727987    12729384
    18485360    12733764    12737968    12739572    12739188    12738213
    18534950    12738042    12739620    12742417    12745602    12748343
    18584541    12749902    12749778    12747508    12742634    12735343
    18634131    12727156    12719756    12714810    12712932    12713006
    18683721    12713756    12713938    12713591    12714424    12718261
    18733311    12726841    12739820    12754689    12768843    12779743
    18782901    12785996    12787144    12782762    12772645    12759199
    18832491    12746510    12738693    12739362    12747900    12761576
    18882082    12777645    12792951    12801824    12797627    12773721
    18931672    12726816    12669053    12617009    12587264    12590151
    18981262    12614631    12645099    12665964    12667559    12655298
    19030852    12636960    12620307    12610974    12610538    12620122
    19080442    12640766    12669321    12696617    12713022    12709331
    19130032    12687862    12663442    12651527    12666339    12701955
    19179623    12735996    12745601    12710743    12641876    12568008
    19229213    12518412    12517658    12555704    12607040    12646085
    19278803    12653156    12638961    12623974    12628672    12665499
    19328393    12717727    12762020    12775066    12745951    12695534
    19377983    12649694    12634154    12659343    12707680    12758590
    19427574    12791763    12797541    12780328    12745490    12698535
    19477164    12647969    12605157    12581577    12587474    12617522
    19526754    12655737    12685931    12693741    12679571    12650969
    19576344    12615529    12580382    12550184    12528763    12519947
    19625934    12525421    12539156    12553381    12560342    12556795
    19675524    12550497    12550850    12567152    12600911    12640590
    19725115    12673408    12686893    12678027    12654791    12625785
    19774705    12599302    12578685    12563287    12552343    12545183
    19824295    12542031    12543601    12550615    12563238    12578291
    19873885    12591359    12598025    12594738    12581292    12558288
    19923475    12526334    12488450    12453693    12432053    12433405
    19973066    12459558    12498960    12538802    12566596    12578815
    20022656    12581888    12582765    12587916    12597018    12604685
    20072246    12605412    12594687    12576159    12557477    12546321
    20121836    12548433    12559833    12573493    12582385    12581842
    20171426    12574563    12564681    12556317    12551789    12549852
    20221016    12548842    12547128    12544297    12541492    12539958
    20270607    12540820    12543153    12544331    12541674    12532845
    20320197    12518609    12501391    12483631    12467804    12456580
    20369787    12452691    12458870    12476510    12502714    12533730
    20419377    12565804    12595046    12617295    12628358    12624143
    20468967    12603977    12571401    12530213    12484311    12439083
    20518558    12401080    12376883    12372080    12384281    12407244
    20568148    12434706    12460806    12481547    12493469    12493117
    20617738    12480234    12463155    12451645    12455348    12475734
    20667328    12501060    12518380    12515324    12492655    12464165
    20716918    12444209    12445582    12464383    12486587    12498026
    20766508    12487436    12460331    12428235    12402679    12391733
    20816099    12392210    12398639    12405566    12409418    12410155
    20865689    12408132    12403705    12397331    12389585    12381046
    20915279    12372496    12367204    12370107    12386171    12418716
    20964869    12460720    12501142    12528937    12536305    12526612
    21014459    12505618    12479080    12452262    12429480    12414944
    21064049    12412652    12420637    12430251    12432492    12419335
    21113640    12394279    12368348    12352698    12356464    12376822
    21163230    12406555    12438435    12466084    12485795    12494388
    21212820    12488725    12469352    12443217    12417909    12400802
    21262410    12394333    12396058    12403321    12413503    12424346
    21312000    12433790    12439780    12440754    12437557    12431762
    21361591    12424946    12418783    12415206    12416189    12423627
    21411181    12435833    12446148    12447548    12433557    12406061
    21460771    12373432    12344211    12325949    12319372    12322319
    21510361    12332621    12348165    12367045    12387393    12407341
    21559951    12424682    12436593    12440187    12432758    12415680
    21609541    12394353    12374348    12360902    12356215    12360862
    21659132    12375408    12398726    12422319    12435672    12428309
    21708722    12397364    12356701    12322402    12310128    12322541
    21758312    12347207    12370844    12381019    12374617    12354302
    21807902    12322824    12283878    12245925    12218930    12212841
    21857492    12231270    12262240    12291422    12304774    12298974
    21907083    12284268    12271776    12271839    12285397    12307155
    21956673    12331703    12353971    12370691    12379195    12376820
    22006263    12362889    12341767    12318607    12298509    12284531
    22055853    12277126    12276575    12283000    12294600    12308316
    22105443    12321064    12330206    12335400    12337043    12335526
    22155033    12330258    12318271    12296246    12261103    12217519
    22204624    12179431    12161318    12175944    12217898    12270842
    22254214    12318290    12346484    12354134    12343506    12316874
    22303804    12278037    12234003    12192184    12159893    12141990
    22353394    12140800    12158528    12196308    12246075    12295104
    22402984    12330632    12343651    12339087    12325088    12309752
    22452575    12297094    12284162    12267321    12243335    12215652
    22502165    12193269    12185352    12198798    12226022    12253754
    22551755    12268719    12263619    12247714    12233107    12231664
    22601345    12246245    12268115    12287775    12296456    12293372
    22650935    12282647    12268475    12254097    12238527    12219618
    22700525    12195244    12166165    12138716    12119868    12116152
    22750116    12125546    12138295    12144366    12135803    12118769
    22799706    12105298    12107436    12130457    12160463    12180189
    22849296    12172820    12138113    12096885    12071309    12081043
    22898886    12119943    12166736    12199955    12204143    12188035
    22948476    12166460    12154144    12157594    12169195    12179942
    22998067    12181411    12174125    12165597    12163529    12173738
    23047657    12191716    12209422    12218828    12215039    12200188
    23097247    12177370    12149814    12123806    12108678    12113891
    23146837    12146207    12192982    12233074    12245317    12218201
    23196427    12167557    12114023    12077843    12066116    12070004
    23246017    12079714    12086275    12088191    12087945    12088054
    23295608    12090172    12092985    12094544    12092946    12088368
    23345198    12083941    12083021    12088674    12100784    12117277
    23394788    12136048    12155149    12173234    12189111    12201582
    23444378    12209139    12209785    12201478    12182621    12157223
    23493968    12133121    12118224    12117714    12124831    12129546
    23543558    12121931    12100127    12076113    12063228    12073738
    23593149    12105227    12144657    12178750    12197331    12204512
    23642739    12208515    12217490    12233139    12245753    12244460
    23692329    12219458    12175968    12130261    12098861    12094773
    23741919    12114752    12150864    12195157    12238423    12269248
    23791509    12275998    12248370    12193981    12133289    12087029
    23841100    12070914    12078486    12097178    12114487    12122579
    23890690    12121340    12111381    12093754    12074917    12064941
    23940280    12073967    12107333    12151085    12186427    12194808
    23989870    12171150    12130578    12089878    12064688    12058601
    24039460    12067999    12089169    12117324    12143941    12159678
    24089050    12155431    12131388    12099868    12074008    12065438
    24138641    12072813    12088148    12103408    12112581    12115520
    24188231    12113136    12106367    12096955    12087518    12080717
    24237821    12078672    12079819    12081062    12079303    12072784
    24287411    12062846    12051267    12039794    12029644    12021566
    24337001    12016293    12014695    12018336    12029004    12048444
    24386592    12074303    12096943    12105974    12092235    12061768
    24436182    12030853    12015964    12027890    12056049    12084832
    24485772    12098901    12093935    12080218    12069037    12070375
    24535362    12083439    12102130    12120311    12133147    12139227
    24584952    12137700    12127778    12110060    12086464    12058963
    24634542    12030087    12005413    11991553    11995048    12015647
    24684133    12040886    12057026    12051762    12029865    12007302
    24733723    12000238    12018800    12051974    12084128    12099973
    24783313    12095594    12080718    12065874    12059888    12059683
    24832903    12057115    12044050    12018496    11991883    11977416
    24882493    11987118    12015214    12042171    12048100    12020180
    24932084    11974620    11935080    11924860    11951972    12003816
    24981674    12066337    12125822    12171250    12192869    12180969
    25031264    12134953    12075736    12027331    12012315    12029935
    25080854    12060497    12083764    12084476    12068424    12046968
    25130444    12031293    12025208    12022533    12016383    12001086
    25180034    11980252    11961776    11953557    11959114    11972087
    25229625    11984766    11989882    11986653    11979237    11971912
    25279215    11967523    11963422    11955647    11940373    11918233
    25328805    11895268    11877845    11871376    11875062    11885624
    25378395    11899781    11915142    11931011    11946885    11962130
    25427985    11974648    11981409    11979369    11966961    11947122
    25477575    11923643    11900335    11881411    11871480    11875164
    25527166    11895319    11926183    11959364    11986527    12001997
    25576756    12003970    11990943    11962753    11929661    11906820
    25626346    11909355    11941432    11983494    12012884    12008949
    25675936    11976771    11939263    11919696    11933035    11967338
    25725526    12005222    12029796    12035330    12027171    12011136
    25775117    11992637    11975109    11961390    11954272    11954388
    25824707    11959361    11966591    11973460    11977233    11975122
    25874297    11964370    11945924    11927927    11919349    11927944
    25923887    11948520    11968056    11973435    11958136    11933421
    25973477    11913513    11911834    11928713    11953800    11976435
    26023067    11988360    11990248    11984852    11974877    11961847
    26072658    11946010    11927553    11906949    11886134    11867502
    26122248    11853411    11844484    11838919    11834735    11830505
    26171838    11828575    11832863    11847263    11872827    11905535
    26221428    11940839    11973863    11996747    12000035    11974296
    26271018    11918628    11851452    11793851    11765395    11767261
    26320609    11788366    11817403    11845062    11867692    11882642
    26370199    11887439    11882556    11870858    11855280    11838331
    26419789    11821017    11804013    11788110    11776577    11775100
    26469379    11789464    11822030    11860514    11888726    11891022
    26518969    11868009    11838912    11823976    11838162    11869490
    26568559    11897416    11901775    11877932    11841824    11810803
    26618150    11799097    11802289    11809061    11808227    11796603
    26667740    11783048    11777422    11787692    11808835    11830357
    26717330    11841813    11837877    11821842    11797835    11770340
    26766920    11746652    11735384    11745082    11776531    11816138
    26816510    11848752    11861064    11855680    11843356    11834873
    26866101    11835493    11839425    11839559    11829570    11810510
    26915691    11787478    11765605    11748640    11737387    11732273
    26965281    11733705    11741903    11756972    11779012    11806108
    27014871    11831890    11849388    11852587    11845426    11837767
    27064461    11839526    11855246    11877262    11896223    11903361
    27114051    11896083    11875516    11842854    11801796    11761768
    27163642    11732992    11724449    11732025    11743751    11747576
    27213232    11737895    11723602    11715570    11723631    11746910
    27262822    11778252    11810432    11838082    11859877    11875027
    27312412    11882909    11884531    11881827    11876727    11869670
    27362002    11858003    11838689    11809654    11777555    11753685
    27411592    11749310    11767235    11793915    11813937    11813866
    27461183    11796550    11772843    11753598    11744513    11742144
    27510773    11742110    11740388    11735586    11727484    11715899
    27560363    11702626    11692619    11691120    11701798    11718197
    27609953    11729843    11726432    11706196    11679496    11657612
    27659543    11649312    11649369    11647728    11634676    11612744
    27709134    11599653    11614067    11667641    11739036    11797214
    27758724    11812201    11781657    11732687    11693828    11685675
    27808314    11697713    11711813    11710714    11693789    11675395
    27857904    11670421    11688018    11718974    11750414    11770083
    27907494    11774589    11767167    11751211    11731268    11714848
    27957084    11709930    11723287    11748732    11772199    11779570
    28006675    11765572    11743066    11727139    11730596    11747861
    28056265    11764479    11766082    11747997    11721218    11698164
    28105855    11689021    11690474    11694160    11691919    11683090
    28155445    11676468    11681445    11704167    11736182    11764936
    28205035    11778276    11772648    11752830    11723941    11692190
    28254626    11667370    11660017    11679475    11718655    11758451
    28304216    11779513    11772069    11749244    11727511    11721871
    28353806    11733787    11757421    11786854    11815396    11835016
    28403396    11837555    11817793    11788904    11771144    11784262
    28452986    11829356    11884292    11925478    11936338    11930108
    28502576    11927934    11949997    11998414    12059270    12118098
    28552167    12162640    12186960    12186248    12157226    12113498
    28601757    12079117    12078135    12116246    12163759    12186954
    28651347    12158262    12092097    12020403    11974661    11965811
    28700937    11978032    11993709    11998572    11992815    11980538
    28750527    11965809    11952150    11942604    11940194    11945925
    28800118    11955302    11962903    11963669    11956157    11940994
    28849708    11918853    11891968    11865282    11844004    11832206
    28899298    11827338    11824460    11818685    11806735    11787108
    28948888    11758397    11723171    11697789    11701596    11751439
    28998478    11831701    11904055    11929868    11895263    11837696
    29048068    11801003    11821193    11879638    11934416    11944402
    29097659    11900557    11834336    11779780    11761560    11767499
    29147249    11776371    11768445    11746151    11728881    11736401
    29196839    11776451    11829963    11874244    11889565    11878096
    29246429    11851827    11822740    11800702    11792840    11806100
    29296019    11843827    11895127    11945591    11981445    11998145
    29345610    11998102    11983909    11961203    11942135    11939698
    29395200    11964162    12007026    12051877    12082551    12091831
    29444790    12083218    12060841    12029139    11993636    11960093
    29494380    11933643    11911744    11886739    11850943    11803419
    29543970    11755699    11720661    11708050    11709805    11711580
    29593560    11699482    11670174    11630844    11589137    11552926
    29643151    11530716    11531124    11560749    11608017    11651736
    29692741    11670914    11658631    11628186    11594443    11569723
    29742331    11555716    11551335    11555361    11564667    11574700
    29791921    11580891    11581734    11581874    11586700    11599825
    29841511    11614210    11618850    11603334    11571347    11540849
    29891101    11530424    11552033    11599427    11663250    11734876
    29940692    11811819    11894672    11983876    12072882    12145923
    29990282    12186599    12185238    12156738    12121604    12098964
    30039872    12091996    12093632    12096668    12096536    12093047
    30089462    12086423    12076454    12060895    12036907    12002035
    30139052    11959745    11918177    11885561    11864967    11849017
    30188643    11829065    11798673    11764056    11735944    11724428
    30238233    11726582    11727360    11711286    11672743    11629632
    30287823    11603289    11611219    11644904    11685001    11712677
    30337413    11722991    11725700    11731260    11744214    11753085
    30387003    11743711    11704588    11644719    11582645    11536576
    30436593    11512992    11504774    11504041    11505755    11513277
    30486184    11531515    11564203    11605210    11643481    11668189
    30535774    11677471    11680454    11686929    11703786    11728895
    30585364    11758383    11788617    11818062    11846265    11872732
    30634954    11895153    11908953    11909417    11893201    11861250
    30684544    11815340    11758035    11698683    11650110    11624748
    30734135    11620772    11618892    11598761    11548983    11485187
    30783725    11428076    11395764    11385153    11382766    11375281
    30833315    11356336    11327624    11291292    11251446    11217672
    30882905    11200510    11208373    11233892    11262601    11280331
    30932495    11281306    11268624    11245810    11216681    11185794
    30982085    11157819    11137105    11125943    11125808    11137917
    31031676    11158340    11178355    11189088    11186424    11176475
    31081266    11166676    11163347    11166816    11175400    11187358
    31130856    11200062    11210188    11214418    11212061    11207103
    31180446    11204015    11205721    11208443    11206592    11195182
    31230036    11176227    11156245    11141758    11135744    11136096
    31279627    11140314    11146609    11155561    11168247    11185122
    31329217    11201384    11209577    11202479    11179915    11149577
    31378807    11119570    11097410    11089136    11100563    11135140
    31428397    11181977    11224800    11247962    11246702    11225402
    31477987    11188758    11144798    11107627    11091991    11107397
    31527577    11141129    11174588    11190635    11187789    11174063
    31577168    11157524    11143359    11133015    11127688    11128122
    31626758    11133770    11143855    11157024    11168028    11169998
    31676348    11156558    11130875    11104670    11089896    11090120
    31725938    11093007    11084447    11055676    11020863    11000324
    31775528    11012054    11049785    11092806    11120619    11126853
    31825118    11122646    11120216    11127176    11138984    11149117
    31874709    11151962    11147382    11137279    11123668    11110243
    31924299    11102026    11104004    11116547    11132579    11144349
    31973889    11146224    11139933    11128795    11115708    11100183
    32023479    11080124    11053710    11025464    11006084    11006459
    32073069    11029248    11060825    11085654    11091945    11083877
    32122660    11069891    11057919    11050893    11048918    11052003
    32172250    11058378    11064262    11065774    11060858    11051613
    32221840    11040716    11030918    11025348    11027246    11039168
    32271430    11055952    11067586    11064273    11046302    11026378
    32321020    11017953    11027707    11045684    11059415    11059183
    32370610    11049559    11039741    11037990    11041367    11039614
    32420201    11022652    10991505    10961182    10947568    10959330
    32469791    10987272    11019485    11045520    11062454    11069778
    32519381    11067161    11056331    11040323    11022140    11002946
    32568971    10981687    10957187    10931555    10914560    10917059
    32618561    10945435    10984877    11014306    11014880    10990504
    32668152    10958349    10935402    10929166    10936796    10954904
    32717742    10977495    10993222    10990081    10962640    10932134
    32767332    10926564    10968555    11035726    11083250    11068417
    32816922    10994331    10906488    10851647    10850563    10879829
    32866512    10911751    10925503    10922523    10908755    10889905
    32916102    10870155    10853080    10842261    10841349    10854055
    32965693    10883850    10924559    10957220    10962033    10931788
    33015283    10889901    10864358    10875215    10905449    10927201
    33064873    10916094    10880394    10846222    10838819    10860037
    33114463    10888904    10903638    10893969    10869558    10842042
    33164053    10820099    10802970    10788028    10773460    10762421
    33213644    10759925    10770295    10789245    10806686    10812685
    33263234    10805580    10793414    10784752    10783747    10785474
    33312824    10783891    10774921    10761862    10749743    10742956
    33362414    10741384    10742969    10745640    10747232    10745510
    33412004    10738298    10725597    10710205    10695097    10682558
    33461594    10673340    10667993    10667641    10675701    10696160
    33511185    10730890    10766279    10781834    10758923    10706695
    33560775    10655393    10635170    10653177    10687366    10713857
    33610365    10718813    10709953    10697789    10690179    10684998
    33659955    10677771    10665114    10650986    10642388    10645694
    33709545    10659068    10674956    10685839    10688781    10686089
    33759135    10680351    10674008    10669213    10668090    10672256
    33808726    10681711    10696130    10714083    10727959    10728012
    33858316    10706157    10671062    10641094    10633809    10647790
    33907906    10663863    10662421    10637772    10605119    10581371
    33957496    10577152    10587662    10605782    10624748    10639276
    34007086    10644463    10636832    10623002    10613960    10619784
    34056677    10638680    10660593    10675474    10678048    10668253
    34106267    10646350    10617190    10593534    10588910    10607866
    34155857    10630056    10630856    10593725    10539110    10498030
    34205447    10497210    10530382    10575997    10613404    10635507
    34255037    10645039    10644945    10637844    10625993    10611639
    34304627    10597772    10588659    10588688    10599339    10614265
    34354218    10625812    10628030    10622329    10612109    10600547
    34403808    10589227    10579052    10570891    10565238    10562340
    34453398    10562394    10564584    10567088    10568092    10568661
    34502988    10574151    10590234    10616736    10640270    10645642
    34552578    10624008    10588772    10558201    10547340    10553524
    34602169    10568035    10582949    10597368    10614052    10635371
    34651759    10657354    10671145    10668038    10647345    10617418
    34701349    10587080    10563892    10553337    10560686    10585618
    34750939    10614120    10630123    10623470    10605898    10594207
    34800529    10601546    10620454    10636249    10635808    10619743
    34850119    10595782    10571398    10549532    10529736    10511570
    34899710    10496902    10490067    10495437    10512887    10535463
    34949300    10555645    10566809    10564284    10543655    10505123
    34998890    10463543    10436666    10436999    10452481    10463870
    35048480    10454806    10428943    10398433    10374912    10364227
    35098070    10368744    10390319    10422957    10454064    10471139
    35147661    10470688    10459671    10445586    10432607    10419576
    35197251    10404868    10389149    10378224    10378592    10393023
    35246841    10412520    10425764    10424457    10413874    10403107
    35296431    10399612    10400339    10398075    10386443    10366979
    35346021    10345542    10327818    10316433    10311742    10313928
    35395611    10320373    10325679    10324439    10315883    10305425
    35445202    10298879    10299467    10305782    10315935    10327295
    35494792    10335439    10335684    10325618    10310328    10296440
    35544382    10289401    10289326    10294823    10304366    10315613
    35593972    10325906    10332743    10334994    10332227    10324159
    35643562    10312310    10299407    10288076    10278663    10269516
    35693153    10258993    10247715    10238866    10235711    10238744
    35742743    10244404    10248817    10249517    10246697    10240850
    35792333    10234220    10233357    10245459    10273069    10303708
    35841923    10321873    10316982    10299328    10284736    10285230
    35891513    10291651    10287512    10259769    10220736    10194044
    35941103    10200383    10231015    10260499    10265127    10246958
    35990694    10226455    10223379    10236713    10246905    10234499
    36040284    10200820    10170219    10167749    10196564    10229749
    36089874    10238459    10213541    10179347    10163408    10178795
    36139464    10208049    10229848    10230176    10214234    10190346
    36189054    10167152    10154341    10161813    10193837    10231536
    36238644    10250092    10231783    10195255    10170769    10182263
    36288235    10213195    10231091    10208720    10161171    10123855
    36337825    10128227    10164447    10198704    10199481    10168692
    36387415    10131520    10112435    10116066    10130592    10144031
    36437005    10151901    10157090    10162665    10167663    10166448
    36486595    10153294    10130020    10108751    10102217    10113972
    36536186    10132833    10146345    10148890    10147742    10151575
    36585776    10162516    10168169    10154211    10115711    10072192
    36635366    10047099    10054213    10077761    10096342    10095144
    36684956    10082999    10074041    10078536    10090511    10099731
    36734546    10098452    10091158    10086071    10089329    10095180
    36784136    10093659    10076777    10049646    10022711    10005372
    36833727     9998843    10000541    10007890    10018591    10030487
    36883317    10041292    10047329    10044096    10027975    10006240
    36932907     9993427    10002912    10029584    10054571    10059627
    36982497    10042457    10013975     9985323     9964368     9955970
    37032087     9964586     9987756    10016037    10039824    10053731
    37081678    10057057    10049477    10035312    10024527    10027200
    37131268    10044303    10064717    10076624    10075040    10064844
    37180858    10051629    10037369    10018367     9990524     9956873
    37230448     9932538     9933673     9962787     9997441    10012646
    37280038     9997509     9968845     9946645     9941755     9945737
    37329628     9947736     9941903     9933666     9929979     9933616
    37379219     9937311     9932340     9916412     9903634     9910668
    37428809     9943638     9980250     9993479     9969205     9930018
    37478399     9904979     9911734     9933805     9948366     9940476
    37527989     9919865     9901075     9894843     9899468     9910720
    37577579     9923857     9932410     9929545     9912371     9891852
    37627170     9881990     9891321     9908577     9918013     9909164
    37676760     9891209     9877889     9878999     9889326     9900086
    37726350     9904418     9902914     9897965     9891726     9885407
    37775940     9879989     9876042     9872527     9867998     9861462
    37825530     9853716     9846003     9839291     9833432     9827999
##END=
